 #calculated the component:  1  2  3
 #tolerance:    2.000000E-03
 #broadening:    2.000000E-03Ha
 #scissors shift:    0.000000E+00Ha
 #energy window:    2.837881E+01eV    1.042902E+00Ha
 # Energy(eV)  |TotChi(-2w,w,w)|   |Tot Chi(-2w,w,w)|
 # eV          *10^-7 esu        *10^-12 m/V SI units 
 # 
       0.008163   2.466986E+01   1.033369E+03
       0.016327   2.515670E+01   1.053762E+03
       0.024490   2.566386E+01   1.075005E+03
       0.032654   2.619262E+01   1.097154E+03
       0.040817   2.674443E+01   1.120268E+03
       0.048980   2.732082E+01   1.144412E+03
       0.057144   2.792348E+01   1.169656E+03
       0.065307   2.855425E+01   1.196078E+03
       0.073471   2.921515E+01   1.223761E+03
       0.081634   2.990839E+01   1.252800E+03
       0.089798   3.063640E+01   1.283295E+03
       0.097961   3.140186E+01   1.315358E+03
       0.106124   3.220772E+01   1.349114E+03
       0.114288   3.305724E+01   1.384698E+03
       0.122451   3.395403E+01   1.422263E+03
       0.130615   3.490212E+01   1.461977E+03
       0.138778   3.590598E+01   1.504026E+03
       0.146941   3.697061E+01   1.548621E+03
       0.155105   3.810160E+01   1.595996E+03
       0.163268   3.930522E+01   1.646413E+03
       0.171432   4.058855E+01   1.700169E+03
       0.179595   4.195956E+01   1.757598E+03
       0.187759   4.342728E+01   1.819077E+03
       0.195922   4.500196E+01   1.885038E+03
       0.204085   4.669530E+01   1.955968E+03
       0.212249   4.852063E+01   2.032427E+03
       0.220412   5.049324E+01   2.115056E+03
       0.228576   5.263070E+01   2.204590E+03
       0.236739   5.495326E+01   2.301877E+03
       0.244902   5.748429E+01   2.407896E+03
       0.253066   6.025082E+01   2.523781E+03
       0.261229   6.328416E+01   2.650841E+03
       0.269393   6.662051E+01   2.790593E+03
       0.277556   7.030170E+01   2.944791E+03
       0.285720   7.437573E+01   3.115443E+03
       0.293883   7.889719E+01   3.304838E+03
       0.302046   8.392704E+01   3.515528E+03
       0.310210   8.953126E+01   3.750277E+03
       0.318373   9.577734E+01   4.011912E+03
       0.326537   1.027267E+02   4.303008E+03
       0.334700   1.104207E+02   4.625290E+03
       0.342863   1.188547E+02   4.978574E+03
       0.351027   1.279378E+02   5.359046E+03
       0.359190   1.374320E+02   5.756740E+03
       0.367354   1.468804E+02   6.152511E+03
       0.375517   1.555525E+02   6.515766E+03
       0.383681   1.624741E+02   6.805698E+03
       0.391844   1.666163E+02   6.979208E+03
       0.400007   1.672393E+02   7.005304E+03
       0.408171   1.642170E+02   6.878707E+03
       0.416334   1.580997E+02   6.622465E+03
       0.424498   1.498612E+02   6.277371E+03
       0.432661   1.405325E+02   5.886610E+03
       0.440824   1.309466E+02   5.485078E+03
       0.448988   1.216582E+02   5.096006E+03
       0.457151   1.129767E+02   4.732356E+03
       0.465315   1.050381E+02   4.399825E+03
       0.473478   9.787171E+01   4.099641E+03
       0.481641   9.144852E+01   3.830587E+03
       0.489805   8.571172E+01   3.590284E+03
       0.497968   8.059460E+01   3.375939E+03
       0.506132   7.603013E+01   3.184743E+03
       0.514295   7.195568E+01   3.014073E+03
       0.522459   6.831500E+01   2.861572E+03
       0.530622   6.505874E+01   2.725174E+03
       0.538785   6.214425E+01   2.603092E+03
       0.546949   5.953505E+01   2.493798E+03
       0.555112   5.720018E+01   2.395995E+03
       0.563276   5.511354E+01   2.308591E+03
       0.571439   5.325338E+01   2.230672E+03
       0.579602   5.160170E+01   2.161487E+03
       0.587766   5.014394E+01   2.100424E+03
       0.595929   4.886857E+01   2.047002E+03
       0.604093   4.776689E+01   2.000855E+03
       0.612256   4.683287E+01   1.961731E+03
       0.620420   4.606302E+01   1.929483E+03
       0.628583   4.545640E+01   1.904073E+03
       0.636746   4.501471E+01   1.885572E+03
       0.644910   4.474236E+01   1.874164E+03
       0.653073   4.464675E+01   1.870159E+03
       0.661237   4.473855E+01   1.874004E+03
       0.669400   4.503207E+01   1.886299E+03
       0.677563   4.554572E+01   1.907815E+03
       0.685727   4.630254E+01   1.939516E+03
       0.693890   4.733063E+01   1.982581E+03
       0.702054   4.866345E+01   2.038410E+03
       0.710217   5.033969E+01   2.108624E+03
       0.718381   5.240208E+01   2.195013E+03
       0.726544   5.489443E+01   2.299413E+03
       0.734707   5.785514E+01   2.423430E+03
       0.742871   6.130511E+01   2.567943E+03
       0.751034   6.522720E+01   2.732230E+03
       0.759198   6.953545E+01   2.912694E+03
       0.767361   7.403793E+01   3.101294E+03
       0.775524   7.840951E+01   3.284410E+03
       0.783688   8.220859E+01   3.443545E+03
       0.791851   8.497249E+01   3.559319E+03
       0.800015   8.637921E+01   3.618244E+03
       0.808178   8.638430E+01   3.618457E+03
       0.816342   8.522957E+01   3.570088E+03
       0.824505   8.332211E+01   3.490188E+03
       0.832668   8.108204E+01   3.396357E+03
       0.840832   7.884583E+01   3.302687E+03
       0.848995   7.684017E+01   3.218673E+03
       0.857159   7.519795E+01   3.149884E+03
       0.865322   7.398702E+01   3.099161E+03
       0.873485   7.323617E+01   3.067710E+03
       0.881649   7.295381E+01   3.055882E+03
       0.889812   7.313990E+01   3.063677E+03
       0.897976   7.379288E+01   3.091029E+03
       0.906139   7.491320E+01   3.137957E+03
       0.914302   7.650442E+01   3.204610E+03
       0.922466   7.857233E+01   3.291230E+03
       0.930629   8.112177E+01   3.398021E+03
       0.938793   8.415048E+01   3.524887E+03
       0.946956   8.763833E+01   3.670986E+03
       0.955120   9.153025E+01   3.834010E+03
       0.963283   9.571125E+01   4.009143E+03
       0.971446   9.997533E+01   4.187757E+03
       0.979610   1.039976E+02   4.356240E+03
       0.987773   1.073321E+02   4.495918E+03
       0.995937   1.094684E+02   4.585400E+03
       1.004100   1.099618E+02   4.606068E+03
       1.012263   1.086005E+02   4.549046E+03
       1.020427   1.055134E+02   4.419733E+03
       1.028590   1.011467E+02   4.236821E+03
       1.036754   9.612456E+01   4.026456E+03
       1.044917   9.106586E+01   3.814558E+03
       1.053081   8.641968E+01   3.619939E+03
       1.061244   8.236156E+01   3.449953E+03
       1.069407   7.878180E+01   3.300005E+03
       1.077571   7.538323E+01   3.157645E+03
       1.085734   7.185549E+01   3.009876E+03
       1.093898   6.802849E+01   2.849571E+03
       1.102061   6.391518E+01   2.677273E+03
       1.110224   5.964892E+01   2.498568E+03
       1.118388   5.539224E+01   2.320265E+03
       1.126551   5.127716E+01   2.147893E+03
       1.134715   4.738662E+01   1.984926E+03
       1.142878   4.376020E+01   1.833023E+03
       1.151042   4.040748E+01   1.692585E+03
       1.159205   3.732047E+01   1.563276E+03
       1.167368   3.448259E+01   1.444403E+03
       1.175532   3.187453E+01   1.335157E+03
       1.183695   2.947781E+01   1.234764E+03
       1.191859   2.727705E+01   1.142578E+03
       1.200022   2.526141E+01   1.058148E+03
       1.208185   2.342593E+01   9.812633E+02
       1.216349   2.177280E+01   9.120169E+02
       1.224512   2.031277E+01   8.508594E+02
       1.232676   1.906665E+01   7.986621E+02
       1.240839   1.806630E+01   7.567596E+02
       1.249003   1.735426E+01   7.269337E+02
       1.257166   1.698077E+01   7.112887E+02
       1.265329   1.699731E+01   7.119817E+02
       1.273493   1.744792E+01   7.308567E+02
       1.281656   1.836140E+01   7.691205E+02
       1.289820   1.974810E+01   8.272064E+02
       1.297983   2.160104E+01   9.048224E+02
       1.306146   2.389749E+01   1.001016E+03
       1.314310   2.659562E+01   1.114035E+03
       1.322473   2.962305E+01   1.240848E+03
       1.330637   3.285695E+01   1.376309E+03
       1.338800   3.610158E+01   1.512219E+03
       1.346963   3.907885E+01   1.636931E+03
       1.355127   4.145652E+01   1.736527E+03
       1.363290   4.293022E+01   1.798257E+03
       1.371454   4.333334E+01   1.815143E+03
       1.379617   4.270479E+01   1.788814E+03
       1.387781   4.126369E+01   1.728449E+03
       1.395944   3.931696E+01   1.646905E+03
       1.404107   3.716929E+01   1.556944E+03
       1.412271   3.507704E+01   1.469304E+03
       1.420434   3.324300E+01   1.392480E+03
       1.428598   3.183011E+01   1.333296E+03
       1.436761   3.097555E+01   1.297501E+03
       1.444924   3.079558E+01   1.289962E+03
       1.453088   3.137934E+01   1.314415E+03
       1.461251   3.277614E+01   1.372924E+03
       1.469415   3.498279E+01   1.465356E+03
       1.477578   3.793386E+01   1.588970E+03
       1.485742   4.149268E+01   1.738041E+03
       1.493905   4.544487E+01   1.903590E+03
       1.502068   4.950833E+01   2.073800E+03
       1.510232   5.338211E+01   2.236065E+03
       1.518395   5.683572E+01   2.380729E+03
       1.526559   5.978780E+01   2.504385E+03
       1.534722   6.229824E+01   2.609543E+03
       1.542885   6.446352E+01   2.700242E+03
       1.551049   6.630575E+01   2.777409E+03
       1.559212   6.775193E+01   2.837986E+03
       1.567376   6.869701E+01   2.877574E+03
       1.575539   6.906357E+01   2.892928E+03
       1.583703   6.881267E+01   2.882419E+03
       1.591866   6.794440E+01   2.846048E+03
       1.600029   6.652020E+01   2.786391E+03
       1.608193   6.467898E+01   2.709267E+03
       1.616356   6.261774E+01   2.622926E+03
       1.624520   6.055228E+01   2.536408E+03
       1.632683   5.868646E+01   2.458253E+03
       1.640846   5.719704E+01   2.395864E+03
       1.649010   5.622171E+01   2.355009E+03
       1.657173   5.583635E+01   2.338867E+03
       1.665337   5.602166E+01   2.346630E+03
       1.673500   5.664315E+01   2.372663E+03
       1.681664   5.748035E+01   2.407731E+03
       1.689827   5.830965E+01   2.442469E+03
       1.697990   5.898808E+01   2.470887E+03
       1.706154   5.947762E+01   2.491393E+03
       1.714317   5.981273E+01   2.505430E+03
       1.722481   6.006298E+01   2.515912E+03
       1.730644   6.032427E+01   2.526857E+03
       1.738807   6.072957E+01   2.543834E+03
       1.746971   6.145159E+01   2.574078E+03
       1.755134   6.267595E+01   2.625364E+03
       1.763298   6.454379E+01   2.703604E+03
       1.771461   6.708861E+01   2.810201E+03
       1.779625   7.020650E+01   2.940803E+03
       1.787788   7.368036E+01   3.086316E+03
       1.795951   7.723142E+01   3.235062E+03
       1.804115   8.055818E+01   3.374413E+03
       1.812278   8.336744E+01   3.492087E+03
       1.820442   8.542436E+01   3.578247E+03
       1.828605   8.661639E+01   3.628179E+03
       1.836768   8.700597E+01   3.644498E+03
       1.844932   8.684686E+01   3.637833E+03
       1.853095   8.653036E+01   3.624575E+03
       1.861259   8.645757E+01   3.621526E+03
       1.869422   8.690929E+01   3.640448E+03
       1.877585   8.800520E+01   3.686353E+03
       1.885749   8.976076E+01   3.759890E+03
       1.893912   9.216646E+01   3.860660E+03
       1.902076   9.521531E+01   3.988369E+03
       1.910239   9.887413E+01   4.141630E+03
       1.918403   1.030573E+02   4.316855E+03
       1.926566   1.076445E+02   4.509001E+03
       1.934729   1.125216E+02   4.713295E+03
       1.942893   1.176092E+02   4.926402E+03
       1.951056   1.228623E+02   5.146446E+03
       1.959220   1.282458E+02   5.371946E+03
       1.967383   1.336872E+02   5.599877E+03
       1.975546   1.390178E+02   5.823164E+03
       1.983710   1.439139E+02   6.028252E+03
       1.991873   1.478699E+02   6.193959E+03
       2.000037   1.502405E+02   6.293260E+03
       2.008200   1.503862E+02   6.299364E+03
       2.016364   1.479013E+02   6.195277E+03
       2.024527   1.428098E+02   5.982003E+03
       2.032690   1.355705E+02   5.678765E+03
       2.040854   1.268711E+02   5.314366E+03
       2.049017   1.173829E+02   4.916922E+03
       2.057181   1.076489E+02   4.509187E+03
       2.065344   9.810851E+01   4.109560E+03
       2.073507   8.915680E+01   3.734591E+03
       2.081671   8.116935E+01   3.400014E+03
       2.089834   7.447316E+01   3.119524E+03
       2.097998   6.928234E+01   2.902092E+03
       2.106161   6.564008E+01   2.749525E+03
       2.114325   6.339904E+01   2.655653E+03
       2.122488   6.224367E+01   2.607257E+03
       2.130651   6.174781E+01   2.586486E+03
       2.138815   6.145288E+01   2.574132E+03
       2.146978   6.093264E+01   2.552341E+03
       2.155142   5.982721E+01   2.506036E+03
       2.163305   5.788045E+01   2.424491E+03
       2.171468   5.500994E+01   2.304251E+03
       2.179632   5.135979E+01   2.151354E+03
       2.187795   4.725648E+01   1.979475E+03
       2.195959   4.307094E+01   1.804151E+03
       2.204122   3.907838E+01   1.636911E+03
       2.212286   3.539547E+01   1.482642E+03
       2.220449   3.200555E+01   1.340645E+03
       2.228612   2.883541E+01   1.207855E+03
       2.236776   2.583340E+01   1.082107E+03
       2.244939   2.300678E+01   9.637056E+02
       2.253103   2.040628E+01   8.547763E+02
       2.261266   1.808632E+01   7.575980E+02
       2.269429   1.608752E+01   6.738723E+02
       2.277593   1.446924E+01   6.060863E+02
       2.285756   1.337125E+01   5.600935E+02
       2.293920   1.302009E+01   5.453843E+02
       2.302083   1.357865E+01   5.687813E+02
       2.310246   1.493821E+01   6.257303E+02
       2.318410   1.673726E+01   7.010889E+02
       2.326573   1.857689E+01   7.781467E+02
       2.334737   2.018771E+01   8.456208E+02
       2.342900   2.147575E+01   8.995743E+02
       2.351064   2.248590E+01   9.418873E+02
       2.359227   2.333039E+01   9.772611E+02
       2.367390   2.411450E+01   1.010106E+03
       2.375554   2.487699E+01   1.042045E+03
       2.383717   2.556651E+01   1.070927E+03
       2.391881   2.607695E+01   1.092309E+03
       2.400044   2.632663E+01   1.102767E+03
       2.408207   2.631951E+01   1.102469E+03
       2.416371   2.614035E+01   1.094964E+03
       2.424534   2.590050E+01   1.084917E+03
       2.432698   2.568721E+01   1.075983E+03
       2.440861   2.554630E+01   1.070081E+03
       2.449025   2.549066E+01   1.067750E+03
       2.457188   2.551545E+01   1.068789E+03
       2.465351   2.560922E+01   1.072717E+03
       2.473515   2.575936E+01   1.079006E+03
       2.481678   2.595405E+01   1.087161E+03
       2.489842   2.618302E+01   1.096752E+03
       2.498005   2.643955E+01   1.107497E+03
       2.506168   2.672576E+01   1.119486E+03
       2.514332   2.706316E+01   1.133619E+03
       2.522495   2.750724E+01   1.152221E+03
       2.530659   2.815856E+01   1.179503E+03
       2.538822   2.915742E+01   1.221343E+03
       2.546986   3.065209E+01   1.283952E+03
       2.555149   3.273987E+01   1.371405E+03
       2.563312   3.539703E+01   1.482707E+03
       2.571476   3.843680E+01   1.610037E+03
       2.579639   4.153940E+01   1.739998E+03
       2.587803   4.434945E+01   1.857706E+03
       2.595966   4.658211E+01   1.951227E+03
       2.604129   4.808923E+01   2.014357E+03
       2.612293   4.888182E+01   2.047557E+03
       2.620456   4.910990E+01   2.057111E+03
       2.628620   4.898744E+01   2.051981E+03
       2.636783   4.868278E+01   2.039220E+03
       2.644947   4.824708E+01   2.020969E+03
       2.653110   4.763900E+01   1.995498E+03
       2.661273   4.682136E+01   1.961249E+03
       2.669437   4.584075E+01   1.920173E+03
       2.677600   4.482125E+01   1.877468E+03
       2.685764   4.388674E+01   1.838323E+03
       2.693927   4.307598E+01   1.804362E+03
       2.702090   4.229528E+01   1.771660E+03
       2.710254   4.132504E+01   1.731019E+03
       2.718417   3.988207E+01   1.670576E+03
       2.726581   3.771439E+01   1.579777E+03
       2.734744   3.468307E+01   1.452801E+03
       2.742907   3.079137E+01   1.289786E+03
       2.751071   2.615830E+01   1.095716E+03
       2.759234   2.097328E+01   8.785269E+02
       2.767398   1.546935E+01   6.479785E+02
       2.775561   9.911495E+00   4.151717E+02
       2.783725   4.568877E+00   1.913807E+02
       2.791888   3.520261E-01   1.474563E+01
       2.800051   4.681133E+00   1.960828E+02
       2.808215   8.405888E+00   3.521050E+02
       2.816378   1.150861E+01   4.820715E+02
       2.824542   1.398794E+01   5.859254E+02
       2.832705   1.584748E+01   6.638178E+02
       2.840868   1.711707E+01   7.169983E+02
       2.849032   1.786256E+01   7.482251E+02
       2.857195   1.817544E+01   7.613310E+02
       2.865359   1.816588E+01   7.609305E+02
       2.873522   1.796927E+01   7.526949E+02
       2.881686   1.774477E+01   7.432913E+02
       2.889849   1.764824E+01   7.392479E+02
       2.898012   1.779262E+01   7.452955E+02
       2.906176   1.822123E+01   7.632491E+02
       2.914339   1.890390E+01   7.918445E+02
       2.922503   1.974687E+01   8.271551E+02
       2.930666   2.060641E+01   8.631592E+02
       2.938829   2.130790E+01   8.925432E+02
       2.946993   2.168027E+01   9.081412E+02
       2.955156   2.160395E+01   9.049443E+02
       2.963320   2.104736E+01   8.816296E+02
       2.971483   2.006247E+01   8.403747E+02
       2.979647   1.874134E+01   7.850356E+02
       2.987810   1.716767E+01   7.191178E+02
       2.995973   1.539370E+01   6.448098E+02
       3.004137   1.344626E+01   5.632358E+02
       3.012300   1.134944E+01   4.754041E+02
       3.020464   9.151491E+00   3.833367E+02
       3.028627   6.944384E+00   2.908857E+02
       3.036790   4.861201E+00   2.036255E+02
       3.044954   3.046719E+00   1.276207E+02
       3.053117   1.633229E+00   6.841254E+01
       3.061281   8.905269E-01   3.730230E+01
       3.069444   1.250490E+00   5.238038E+01
       3.077608   2.091248E+00   8.759799E+01
       3.085771   3.145198E+00   1.317457E+02
       3.093934   4.407291E+00   1.846122E+02
       3.102098   5.837086E+00   2.445033E+02
       3.110261   7.340186E+00   3.074650E+02
       3.118425   8.800541E+00   3.686362E+02
       3.126588   1.013555E+01   4.245569E+02
       3.134751   1.134990E+01   4.754234E+02
       3.142915   1.254782E+01   5.256020E+02
       3.151078   1.387603E+01   5.812377E+02
       3.159242   1.541992E+01   6.459080E+02
       3.167405   1.712897E+01   7.174968E+02
       3.175568   1.883439E+01   7.889332E+02
       3.183732   2.034212E+01   8.520885E+02
       3.191895   2.152371E+01   9.015832E+02
       3.200059   2.234199E+01   9.358592E+02
       3.208222   2.281576E+01   9.557043E+02
       3.216386   2.297684E+01   9.624515E+02
       3.224549   2.285444E+01   9.573244E+02
       3.232712   2.247777E+01   9.415468E+02
       3.240876   2.187949E+01   9.164857E+02
       3.249039   2.110080E+01   8.838682E+02
       3.257203   2.019975E+01   8.461252E+02
       3.265366   1.925179E+01   8.064172E+02
       3.273529   1.833776E+01   7.681303E+02
       3.281693   1.752783E+01   7.342042E+02
       3.289856   1.687052E+01   7.066706E+02
       3.298020   1.638736E+01   6.864321E+02
       3.306183   1.606903E+01   6.730979E+02
       3.314347   1.586940E+01   6.647359E+02
       3.322510   1.570053E+01   6.576621E+02
       3.330673   1.543839E+01   6.466817E+02
       3.338837   1.494847E+01   6.261600E+02
       3.347000   1.412954E+01   5.918568E+02
       3.355164   1.296292E+01   5.429894E+02
       3.363327   1.154475E+01   4.835854E+02
       3.371490   1.007690E+01   4.221000E+02
       3.379654   8.814929E+00   3.692389E+02
       3.387817   8.000248E+00   3.351136E+02
       3.395981   7.794317E+00   3.264876E+02
       3.404144   8.229091E+00   3.446993E+02
       3.412308   9.218050E+00   3.861248E+02
       3.420471   1.061770E+01   4.447532E+02
       3.428634   1.226655E+01   5.138198E+02
       3.436798   1.398939E+01   5.859860E+02
       3.444961   1.560089E+01   6.534887E+02
       3.453125   1.692802E+01   7.090793E+02
       3.461288   1.784703E+01   7.475745E+02
       3.469451   1.831156E+01   7.670329E+02
       3.477615   1.834701E+01   7.685178E+02
       3.485778   1.801263E+01   7.545115E+02
       3.493942   1.735934E+01   7.271463E+02
